2022-01-02 19:47:45
Density	Radius	Energy	Rest mass
1.34668374E+13	1.24982500E+01	3.00857424E+52	1.68518540E-02
1.36013711E+15	1.00297324E+01	1.54336489E+54	9.20804034E-01
2.70680738E+15	8.64712988E+00	1.90643385E+54	1.16437892E+00
4.05347765E+15	7.75771289E+00	1.98058211E+54	1.21735801E+00
5.40014792E+15	7.13639551E+00	1.96398699E+54	1.20486003E+00
6.74681819E+15	6.67884473E+00	1.91702540E+54	1.16890070E+00
8.09348845E+15	6.32903027E+00	1.86120747E+54	1.12555732E+00
9.44015872E+15	6.05451465E+00	1.80484611E+54	1.08141295E+00
1.07868290E+16	5.83484863E+00	1.75120275E+54	1.03919476E+00
1.21334993E+16	5.65637061E+00	1.70145213E+54	9.99955700E-01
1.34801695E+16	5.50989160E+00	1.65587113E+54	9.63994757E-01
1.48268398E+16	5.38869116E+00	1.61434931E+54	9.31269743E-01
1.61735101E+16	5.28784546E+00	1.57661835E+54	9.01590369E-01
1.75201803E+16	5.20369287E+00	1.54235767E+54	8.74710716E-01
1.88668506E+16	5.13314014E+00	1.51124302E+54	8.50373641E-01
2.02135209E+16	5.07436084E+00	1.48296791E+54	8.28331565E-01
2.15601912E+16	5.02543506E+00	1.45725203E+54	8.08355431E-01
2.29068614E+16	4.98471387E+00	1.43384327E+54	7.90237736E-01
2.42535317E+16	4.95117236E+00	1.41251685E+54	7.73792632E-01
2.56002020E+16	4.92392236E+00	1.39307313E+54	7.58854661E-01
2.69468722E+16	4.90196387E+00	1.37533504E+54	7.45276919E-01
2.82935425E+16	4.88471777E+00	1.35914547E+54	7.32929075E-01
2.96402128E+16	4.87155371E+00	1.34436476E+54	7.21695436E-01
3.09868830E+16	4.86196094E+00	1.33086856E+54	7.11473164E-01
3.23335533E+16	4.85552832E+00	1.31854580E+54	7.02170673E-01
3.36802236E+16	4.85185693E+00	1.30729708E+54	6.93706220E-01
3.50268938E+16	4.85052246E+00	1.29703312E+54	6.86006669E-01
3.63735641E+16	4.85148340E+00	1.28767351E+54	6.79006417E-01
3.77202344E+16	4.85417285E+00	1.27914568E+54	6.72646473E-01
3.90669047E+16	4.85854248E+00	1.27138386E+54	6.66873651E-01
4.04135749E+16	4.86438672E+00	1.26432835E+54	6.61639882E-01
4.17602452E+16	4.87152832E+00	1.25792480E+54	6.56901613E-01
4.31069155E+16	4.87973437E+00	1.25212360E+54	6.52619295E-01
4.44535857E+16	4.88884619E+00	1.24687937E+54	6.48756927E-01
4.58002560E+16	4.89877100E+00	1.24215051E+54	6.45281674E-01
4.71469263E+16	4.90948486E+00	1.23789882E+54	6.42163524E-01
4.84935965E+16	4.92071436E+00	1.23408911E+54	6.39374996E-01
4.98402668E+16	4.93242871E+00	1.23068897E+54	6.36890877E-01
5.11869371E+16	4.94456738E+00	1.22766845E+54	6.34688001E-01
5.25336074E+16	4.95708545E+00	1.22499987E+54	6.32745048E-01
5.38802776E+16	4.96992236E+00	1.22265758E+54	6.31042369E-01
5.52269479E+16	4.98286670E+00	1.22061782E+54	6.29561831E-01
5.65736182E+16	4.99599121E+00	1.21885853E+54	6.28286679E-01
5.79202884E+16	5.00938232E+00	1.21735922E+54	6.27201415E-01
5.92669587E+16	5.02248242E+00	1.21610082E+54	6.26291692E-01
6.06136290E+16	5.03585498E+00	1.21506561E+54	6.25544209E-01
6.19602992E+16	5.04905225E+00	1.21423708E+54	6.24946635E-01
6.33069695E+16	5.06227588E+00	1.21359984E+54	6.24487521E-01
6.46536398E+16	5.07549463E+00	1.21313957E+54	6.24156234E-01
6.60003100E+16	5.08846387E+00	1.21284289E+54	6.23942895E-01
6.73469803E+16	5.10146143E+00	1.21269733E+54	6.23838316E-01
6.86936506E+16	5.11412256E+00	1.21269126E+54	6.23833952E-01
7.00403209E+16	5.12674072E+00	1.21281382E+54	6.23921853E-01
7.13869911E+16	5.13910937E+00	1.21305487E+54	6.24094616E-01
7.27336614E+16	5.15143848E+00	1.21340495E+54	6.24345354E-01
7.40803317E+16	5.16344434E+00	1.21385522E+54	6.24667648E-01
7.54270019E+16	5.17513184E+00	1.21439744E+54	6.25055523E-01
7.67736722E+16	5.18674902E+00	1.21502391E+54	6.25503414E-01
7.81203425E+16	5.19808838E+00	1.21572744E+54	6.26006135E-01
7.94670127E+16	5.20938232E+00	1.21650132E+54	6.26558858E-01
8.08136830E+16	5.22008838E+00	1.21733929E+54	6.27157084E-01
8.21603533E+16	5.23074561E+00	1.21823551E+54	6.27796623E-01
8.35070236E+16	5.24111035E+00	1.21918453E+54	6.28473573E-01
8.48536938E+16	5.25142236E+00	1.22018127E+54	6.29184300E-01
8.62003641E+16	5.26138184E+00	1.22122097E+54	6.29925422E-01
8.75470344E+16	5.27088867E+00	1.22229923E+54	6.30693789E-01
8.88937046E+16	5.28034473E+00	1.22341193E+54	6.31486471E-01
9.02403749E+16	5.28955273E+00	1.22455524E+54	6.32300741E-01
9.15870452E+16	5.29846484E+00	1.22572557E+54	6.33134065E-01
9.29337154E+16	5.30738916E+00	1.22691961E+54	6.33984084E-01
9.42803857E+16	5.31573975E+00	1.22813427E+54	6.34848609E-01
9.56270560E+16	5.32396338E+00	1.22936667E+54	6.35725603E-01
9.69737262E+16	5.33198145E+00	1.23061413E+54	6.36613177E-01
9.83203965E+16	5.33984473E+00	1.23187418E+54	6.37509578E-01
9.96670668E+16	5.34744287E+00	1.23314452E+54	6.38413179E-01
1.01013737E+17	5.35474414E+00	1.23442300E+54	6.39322473E-01
1.02360407E+17	5.36192334E+00	1.23570765E+54	6.40236062E-01
1.03707078E+17	5.36885742E+00	1.23699663E+54	6.41152655E-01
1.05053748E+17	5.37569043E+00	1.23828824E+54	6.42071054E-01
1.06400418E+17	5.38211426E+00	1.23958091E+54	6.42990157E-01
1.07747088E+17	5.38846338E+00	1.24087320E+54	6.43908941E-01
1.09093759E+17	5.39468994E+00	1.24216377E+54	6.44826467E-01
1.10440429E+17	5.40056543E+00	1.24345138E+54	6.45741868E-01
1.11787099E+17	5.40637402E+00	1.24473491E+54	6.46654345E-01
1.13133769E+17	5.41199219E+00	1.24601329E+54	6.47563165E-01
1.14480440E+17	5.41748242E+00	1.24728559E+54	6.48467656E-01
1.15827110E+17	5.42271484E+00	1.24855091E+54	6.49367201E-01
1.17173780E+17	5.42784473E+00	1.24980847E+54	6.50261235E-01
1.18520451E+17	5.43273145E+00	1.25105752E+54	6.51149246E-01
1.19867121E+17	5.43752246E+00	1.25229740E+54	6.52030762E-01
1.21213791E+17	5.44209424E+00	1.25352750E+54	6.52905359E-01
1.22560461E+17	5.44654687E+00	1.25474727E+54	6.53772650E-01
1.23907132E+17	5.45092725E+00	1.25595621E+54	6.54632285E-01
1.25253802E+17	5.45505664E+00	1.25715388E+54	6.55483951E-01
1.26600472E+17	5.45909814E+00	1.25833987E+54	6.56327364E-01
1.27947142E+17	5.46301270E+00	1.25951383E+54	6.57162274E-01
1.29293813E+17	5.46684521E+00	1.26067544E+54	6.57988456E-01
1.30640483E+17	5.47046094E+00	1.26182442E+54	6.58805713E-01
1.31987153E+17	5.47399414E+00	1.26296051E+54	6.59613870E-01
1.33333824E+17	5.47746680E+00	1.26408352E+54	6.60412777E-01
1.34680494E+17	5.48071582E+00	1.26519324E+54	6.61202304E-01
1.36027164E+17	5.48388477E+00	1.26628953E+54	6.61982340E-01
1.37373834E+17	5.48692822E+00	1.26737225E+54	6.62752794E-01
1.38720505E+17	5.48992187E+00	1.26844130E+54	6.63513589E-01
1.40067175E+17	5.49274219E+00	1.26949660E+54	6.64264667E-01
1.41413845E+17	5.49552148E+00	1.27053807E+54	6.65005981E-01
1.42760515E+17	5.49811963E+00	1.27156568E+54	6.65737500E-01
1.44107186E+17	5.50071680E+00	1.27257940E+54	6.66459204E-01
1.45453856E+17	5.50312061E+00	1.27357923E+54	6.67171086E-01
1.46800526E+17	5.50555322E+00	1.27456515E+54	6.67873147E-01
1.48147196E+17	5.50785645E+00	1.27553720E+54	6.68565400E-01
1.49493867E+17	5.51000439E+00	1.27649540E+54	6.69247867E-01
1.50840537E+17	5.51210937E+00	1.27743980E+54	6.69920578E-01
1.52187207E+17	5.51413867E+00	1.27837045E+54	6.70583568E-01
1.53533878E+17	5.51610596E+00	1.27928741E+54	6.71236884E-01
1.54880548E+17	5.51799707E+00	1.28019077E+54	6.71880575E-01
1.56227218E+17	5.51985645E+00	1.28108060E+54	6.72514699E-01
1.57573888E+17	5.52156445E+00	1.28195699E+54	6.73139317E-01
1.58920559E+17	5.52338477E+00	1.28282003E+54	6.73754497E-01
1.60267229E+17	5.52484473E+00	1.28366984E+54	6.74360309E-01
1.61613899E+17	5.52635498E+00	1.28450651E+54	6.74956830E-01
1.62960569E+17	5.52785840E+00	1.28533017E+54	6.75544137E-01
1.64307240E+17	5.52938135E+00	1.28614093E+54	6.76122315E-01
1.65653910E+17	5.53054492E+00	1.28693891E+54	6.76691448E-01
1.67000580E+17	5.53188770E+00	1.28772424E+54	6.77251623E-01
1.68347251E+17	5.53306982E+00	1.28849705E+54	6.77802933E-01
1.69693921E+17	5.53425732E+00	1.28925747E+54	6.78345468E-01
1.71040591E+17	5.53547217E+00	1.29000564E+54	6.78879323E-01
1.72387261E+17	5.53646875E+00	1.29074169E+54	6.79404595E-01
1.73733932E+17	5.53754492E+00	1.29146576E+54	6.79921380E-01
1.75080602E+17	5.53847266E+00	1.29217799E+54	6.80429776E-01
1.76427272E+17	5.53948242E+00	1.29287853E+54	6.80929883E-01
1.77773942E+17	5.54028223E+00	1.29356752E+54	6.81421802E-01
1.79120613E+17	5.54112012E+00	1.29424511E+54	6.81905633E-01
1.80467283E+17	5.54196533E+00	1.29491142E+54	6.82381477E-01
1.81813953E+17	5.54272998E+00	1.29556663E+54	6.82849436E-01
1.83160623E+17	5.54348340E+00	1.29621086E+54	6.83309612E-01
1.84507294E+17	5.54409229E+00	1.29684426E+54	6.83762107E-01
1.85853964E+17	5.54474854E+00	1.29746698E+54	6.84207022E-01
1.87200634E+17	5.54543555E+00	1.29807917E+54	6.84644460E-01
1.88547305E+17	5.54593457E+00	1.29868096E+54	6.85074522E-01
1.89893975E+17	5.54643506E+00	1.29927251E+54	6.85497309E-01
1.91240645E+17	5.54693848E+00	1.29985395E+54	6.85912923E-01
1.92587315E+17	5.54747998E+00	1.30042544E+54	6.86321463E-01
1.93933986E+17	5.54787500E+00	1.30098711E+54	6.86723029E-01
1.95280656E+17	5.54823340E+00	1.30153910E+54	6.87117722E-01
1.96627326E+17	5.54868994E+00	1.30208155E+54	6.87505639E-01
1.97973996E+17	5.54896436E+00	1.30261461E+54	6.87886879E-01
1.99320667E+17	5.54942187E+00	1.30313841E+54	6.88261538E-01
2.00667337E+17	5.54968994E+00	1.30365309E+54	6.88629714E-01
2.02014007E+17	5.54987402E+00	1.30415879E+54	6.88991501E-01
2.03360678E+17	5.55006982E+00	1.30465563E+54	6.89346995E-01
2.04707348E+17	5.55027246E+00	1.30514376E+54	6.89696289E-01
2.06054018E+17	5.55046973E+00	1.30562330E+54	6.90039476E-01
2.07400688E+17	5.55069531E+00	1.30609439E+54	6.90376648E-01
2.08747359E+17	5.55084619E+00	1.30655715E+54	6.90707897E-01
2.10094029E+17	5.55092773E+00	1.30701171E+54	6.91033312E-01
2.11440699E+17	5.55100195E+00	1.30745821E+54	6.91352982E-01
2.12787369E+17	5.55108545E+00	1.30789676E+54	6.91666995E-01
2.14134040E+17	5.55113232E+00	1.30832748E+54	6.91975439E-01
2.15480710E+17	5.55138477E+00	1.30875051E+54	6.92278399E-01
2.16827380E+17	5.55138184E+00	1.30916595E+54	6.92575959E-01
2.18174051E+17	5.55138184E+00	1.30957394E+54	6.92868204E-01
2.19520721E+17	5.55138135E+00	1.30997458E+54	6.93155217E-01
2.20867391E+17	5.55139160E+00	1.31036799E+54	6.93437079E-01
2.22214061E+17	5.55111963E+00	1.31075428E+54	6.93713870E-01
2.23560732E+17	5.55106006E+00	1.31113357E+54	6.93985671E-01
2.24907402E+17	5.55099414E+00	1.31150598E+54	6.94252559E-01
2.26254072E+17	5.55092725E+00	1.31187160E+54	6.94514613E-01
2.27600742E+17	5.55084521E+00	1.31223055E+54	6.94771908E-01
2.28947413E+17	5.55071826E+00	1.31258293E+54	6.95024519E-01
2.30294083E+17	5.55052979E+00	1.31292885E+54	6.95272522E-01
2.31640753E+17	5.55042236E+00	1.31326841E+54	6.95515988E-01
2.32987423E+17	5.55023486E+00	1.31360172E+54	6.95754991E-01
2.34334094E+17	5.55006836E+00	1.31392887E+54	6.95989600E-01
2.35680764E+17	5.54992773E+00	1.31424996E+54	6.96219887E-01
2.37027434E+17	5.54974707E+00	1.31456510E+54	6.96445920E-01
2.38374105E+17	5.54952979E+00	1.31487437E+54	6.96667767E-01
2.39720775E+17	5.54939600E+00	1.31517787E+54	6.96885495E-01
2.41067445E+17	5.54902637E+00	1.31547570E+54	6.97099169E-01
2.42414115E+17	5.54884570E+00	1.31576794E+54	6.97308856E-01
2.43760786E+17	5.54854248E+00	1.31605469E+54	6.97514619E-01
2.45107456E+17	5.54828369E+00	1.31633604E+54	6.97716521E-01
2.46454126E+17	5.54804248E+00	1.31661207E+54	6.97914623E-01
2.47800796E+17	5.54784473E+00	1.31688286E+54	6.98108988E-01
2.49147467E+17	5.54752539E+00	1.31714852E+54	6.98299674E-01
2.50494137E+17	5.54739014E+00	1.31740910E+54	6.98486742E-01
2.51840807E+17	5.54689160E+00	1.31766471E+54	6.98670250E-01
2.53187478E+17	5.54656055E+00	1.31791542E+54	6.98850255E-01
2.54534148E+17	5.54625488E+00	1.31816131E+54	6.99026813E-01
2.55880818E+17	5.54596826E+00	1.31840246E+54	6.99199980E-01
2.57227488E+17	5.54571289E+00	1.31863895E+54	6.99369811E-01
2.58574159E+17	5.54542187E+00	1.31887084E+54	6.99536359E-01
2.59920829E+17	5.54494482E+00	1.31909822E+54	6.99699678E-01
2.61267499E+17	5.54458545E+00	1.31932116E+54	6.99859820E-01
2.62614169E+17	5.54423975E+00	1.31953974E+54	7.00016836E-01
2.63960840E+17	5.54392773E+00	1.31975401E+54	7.00170776E-01
2.65307510E+17	5.54355957E+00	1.31996406E+54	7.00321690E-01
2.66654180E+17	5.54313086E+00	1.32016995E+54	7.00469628E-01
2.68000850E+17	5.54278320E+00	1.32037175E+54	7.00614636E-01
2.69347521E+17	5.54242285E+00	1.32056953E+54	7.00756764E-01
2.70694191E+17	5.54202246E+00	1.32076335E+54	7.00896056E-01
2.72040861E+17	5.54171533E+00	1.32095327E+54	7.01032559E-01
2.73387532E+17	5.54138477E+00	1.32113936E+54	7.01166319E-01
2.74734202E+17	5.54086475E+00	1.32132169E+54	7.01297378E-01
2.76080872E+17	5.54043799E+00	1.32150031E+54	7.01425782E-01
2.77427542E+17	5.54004248E+00	1.32167528E+54	7.01551572E-01
2.78774213E+17	5.53971533E+00	1.32184666E+54	7.01674792E-01
2.80120883E+17	5.53938135E+00	1.32201451E+54	7.01795482E-01
2.81467553E+17	5.53884521E+00	1.32217890E+54	7.01913684E-01
2.82814223E+17	5.53838232E+00	1.32233986E+54	7.02029437E-01
2.84160894E+17	5.53798242E+00	1.32249747E+54	7.02142782E-01
2.85507564E+17	5.53758545E+00	1.32265177E+54	7.02253757E-01
2.86854234E+17	5.53709668E+00	1.32280282E+54	7.02362401E-01
2.88200905E+17	5.53671973E+00	1.32295068E+54	7.02468750E-01
2.89547575E+17	5.53624512E+00	1.32309538E+54	7.02572843E-01
2.90894245E+17	5.53586719E+00	1.32323699E+54	7.02674715E-01
2.92240915E+17	5.53546582E+00	1.32337556E+54	7.02774403E-01
2.93587586E+17	5.53496289E+00	1.32351113E+54	7.02871941E-01
2.94934256E+17	5.53449463E+00	1.32364375E+54	7.02967365E-01
2.96280926E+17	5.53406250E+00	1.32377348E+54	7.03060708E-01
2.97627596E+17	5.53371338E+00	1.32390035E+54	7.03152004E-01
2.98974267E+17	5.53317187E+00	1.32402442E+54	7.03241286E-01
3.00320937E+17	5.53274658E+00	1.32414572E+54	7.03328586E-01
3.01667607E+17	5.53226465E+00	1.32426431E+54	7.03413937E-01
3.03014277E+17	5.53187207E+00	1.32438023E+54	7.03497370E-01
3.04360948E+17	5.53146387E+00	1.32449352E+54	7.03578916E-01
3.05707618E+17	5.53093408E+00	1.32460422E+54	7.03658605E-01
3.07054288E+17	5.53046680E+00	1.32471238E+54	7.03736466E-01
3.08400959E+17	5.53002246E+00	1.32481804E+54	7.03812531E-01
3.09747629E+17	5.52969043E+00	1.32492124E+54	7.03886826E-01
3.11094299E+17	5.52909082E+00	1.32502201E+54	7.03959382E-01
3.12440969E+17	5.52871143E+00	1.32512040E+54	7.04030226E-01
3.13787640E+17	5.52818750E+00	1.32521645E+54	7.04099385E-01
3.15134310E+17	5.52777295E+00	1.32531019E+54	7.04166887E-01
3.16480980E+17	5.52742725E+00	1.32540166E+54	7.04232758E-01
3.17827650E+17	5.52684814E+00	1.32549090E+54	7.04297024E-01
3.19174321E+17	5.52636475E+00	1.32557794E+54	7.04359712E-01
3.20520991E+17	5.52592920E+00	1.32566282E+54	7.04420846E-01
3.21867661E+17	5.52549414E+00	1.32574557E+54	7.04480452E-01
3.23214332E+17	5.52496973E+00	1.32582624E+54	7.04538555E-01
3.24561002E+17	5.52449707E+00	1.32590484E+54	7.04595178E-01
3.25907672E+17	5.52405225E+00	1.32598142E+54	7.04650345E-01
3.27254342E+17	5.52369336E+00	1.32605601E+54	7.04704079E-01
3.28601013E+17	5.52310840E+00	1.32612864E+54	7.04756405E-01
3.29947683E+17	5.52271338E+00	1.32619934E+54	7.04807343E-01
3.31294353E+17	5.52221045E+00	1.32626815E+54	7.04856917E-01
3.32641023E+17	5.52178076E+00	1.32633508E+54	7.04905149E-01
3.33987694E+17	5.52142187E+00	1.32640019E+54	7.04952060E-01
3.35334364E+17	5.52085596E+00	1.32646348E+54	7.04997671E-01
3.36681034E+17	5.52036768E+00	1.32652500E+54	7.05042003E-01
3.38027704E+17	5.51993457E+00	1.32658477E+54	7.05085078E-01
3.39374375E+17	5.51950000E+00	1.32664282E+54	7.05126914E-01
3.40721045E+17	5.51898242E+00	1.32669918E+54	7.05167532E-01
3.42067715E+17	5.51851025E+00	1.32675387E+54	7.05206951E-01
3.43414386E+17	5.51806592E+00	1.32680692E+54	7.05245191E-01
3.44761056E+17	5.51771045E+00	1.32685837E+54	7.05282271E-01
3.46107726E+17	5.51713086E+00	1.32690822E+54	7.05318210E-01
3.47454396E+17	5.51673096E+00	1.32695652E+54	7.05353025E-01
3.48801067E+17	5.51623486E+00	1.32700328E+54	7.05386734E-01
3.50147737E+17	5.51585498E+00	1.32704853E+54	7.05419357E-01
3.51494407E+17	5.51543506E+00	1.32709229E+54	7.05450909E-01
3.52841077E+17	5.51488721E+00	1.32713460E+54	7.05481408E-01
3.54187748E+17	5.51443213E+00	1.32717546E+54	7.05510872E-01
3.55534418E+17	5.51399121E+00	1.32721491E+54	7.05539317E-01
3.56881088E+17	5.51356152E+00	1.32725297E+54	7.05566759E-01
3.58227759E+17	5.51305811E+00	1.32728966E+54	7.05593214E-01
3.59574429E+17	5.51269092E+00	1.32732500E+54	7.05618699E-01
3.60921099E+17	5.51218213E+00	1.32735901E+54	7.05643228E-01
3.62267769E+17	5.51177344E+00	1.32739172E+54	7.05666818E-01
3.63614440E+17	5.51142187E+00	1.32742315E+54	7.05689484E-01
3.64961110E+17	5.51086475E+00	1.32745332E+54	7.05711240E-01
3.66307780E+17	5.51039160E+00	1.32748224E+54	7.05732101E-01
3.67654450E+17	5.50997314E+00	1.32750994E+54	7.05752081E-01
3.69001121E+17	5.50955273E+00	1.32753644E+54	7.05771196E-01
3.70347791E+17	5.50905469E+00	1.32756176E+54	7.05789458E-01
3.71694461E+17	5.50869238E+00	1.32758592E+54	7.05806881E-01
3.73041132E+17	5.50818994E+00	1.32760893E+54	7.05823480E-01
3.74387802E+17	5.50784619E+00	1.32763081E+54	7.05839267E-01
3.75734472E+17	5.50742969E+00	1.32765159E+54	7.05854256E-01
3.77081142E+17	5.50689014E+00	1.32767128E+54	7.05868459E-01
3.78427813E+17	5.50644531E+00	1.32768989E+54	7.05881889E-01
3.79774483E+17	5.50602393E+00	1.32770745E+54	7.05894560E-01
3.81121153E+17	5.50569336E+00	1.32772398E+54	7.05906482E-01
3.82467823E+17	5.50513525E+00	1.32773948E+54	7.05917669E-01
3.83814494E+17	5.50474707E+00	1.32775398E+54	7.05928131E-01
3.85161164E+17	5.50428564E+00	1.32776750E+54	7.05937882E-01
3.86507834E+17	5.50392236E+00	1.32778004E+54	7.05946933E-01
3.87854504E+17	5.50350488E+00	1.32779163E+54	7.05955294E-01
3.89201175E+17	5.50301416E+00	1.32780227E+54	7.05962977E-01
3.90547845E+17	5.50269287E+00	1.32781200E+54	7.05969994E-01
3.91894515E+17	5.50218457E+00	1.32782081E+54	7.05976355E-01
3.93241186E+17	5.50184473E+00	1.32782873E+54	7.05982071E-01
3.94587856E+17	5.50143994E+00	1.32783577E+54	7.05987152E-01
3.95934526E+17	5.50093652E+00	1.32784195E+54	7.05991609E-01
3.97281196E+17	5.50050049E+00	1.32784727E+54	7.05995452E-01
3.98627867E+17	5.50010498E+00	1.32785176E+54	7.05998691E-01
3.99974537E+17	5.49974561E+00	1.32785543E+54	7.06001336E-01
4.01321207E+17	5.49942187E+00	1.32785828E+54	7.06003397E-01
4.02667877E+17	5.49887842E+00	1.32786034E+54	7.06004884E-01
4.04014548E+17	5.49846338E+00	1.32786162E+54	7.06005805E-01
4.05361218E+17	5.49805469E+00	1.32786212E+54	7.06006170E-01
4.06707888E+17	5.49772217E+00	1.32786187E+54	7.06005989E-01
4.08054559E+17	5.49738623E+00	1.32786088E+54	7.06005270E-01
4.09401229E+17	5.49686523E+00	1.32785915E+54	7.06004022E-01
4.10747899E+17	5.49643848E+00	1.32785670E+54	7.06002255E-01
4.12094569E+17	5.49604590E+00	1.32785354E+54	7.05999976E-01
4.13441240E+17	5.49572021E+00	1.32784969E+54	7.05997194E-01
4.14787910E+17	5.49538721E+00	1.32784515E+54	7.05993918E-01
4.16134580E+17	5.49487012E+00	1.32783994E+54	7.05990156E-01
4.17481250E+17	5.49446094E+00	1.32783407E+54	7.05985916E-01
4.18827921E+17	5.49406592E+00	1.32782754E+54	7.05981205E-01
4.20174591E+17	5.49374023E+00	1.32782038E+54	7.05976032E-01
4.21521261E+17	5.49342187E+00	1.32781259E+54	7.05970405E-01
4.22867931E+17	5.49292236E+00	1.32780417E+54	7.05964331E-01
4.24214602E+17	5.49250049E+00	1.32779515E+54	7.05957818E-01
4.25561272E+17	5.49212451E+00	1.32778553E+54	7.05950872E-01
4.26907942E+17	5.49178418E+00	1.32777533E+54	7.05943502E-01
4.28254613E+17	5.49146045E+00	1.32776454E+54	7.05935715E-01
4.29601283E+17	5.49098340E+00	1.32775319E+54	7.05927517E-01
4.30947953E+17	5.49069092E+00	1.32774128E+54	7.05918916E-01
4.32294623E+17	5.49022998E+00	1.32772882E+54	7.05909919E-01
4.33641294E+17	5.48988867E+00	1.32771582E+54	7.05900531E-01
4.34987964E+17	5.48952832E+00	1.32770230E+54	7.05890761E-01
4.36334634E+17	5.48909375E+00	1.32768825E+54	7.05880614E-01
4.37681304E+17	5.48875342E+00	1.32767368E+54	7.05870096E-01
4.39027975E+17	5.48837305E+00	1.32765862E+54	7.05859216E-01
4.40374645E+17	5.48801074E+00	1.32764306E+54	7.05847977E-01
4.41721315E+17	5.48771729E+00	1.32762701E+54	7.05836387E-01
4.43067986E+17	5.48742334E+00	1.32761049E+54	7.05824452E-01
4.44414656E+17	5.48692773E+00	1.32759349E+54	7.05812178E-01
4.45761326E+17	5.48652930E+00	1.32757604E+54	7.05799571E-01
