2022-01-02 19:47:45
Density	Radius	Energy	Rest mass
1.00000000E-03	1.24982500E+00	2.48572862E-03	2.48820310E-03
1.00999000E-01	1.00297324E+00	1.27515094E-01	1.35958183E-01
2.00998000E-01	8.64712988E-01	1.57512389E-01	1.71922404E-01
3.00997000E-01	7.75771289E-01	1.63638628E-01	1.79744850E-01
4.00996000E-01	7.13639551E-01	1.62267515E-01	1.77899503E-01
5.00995000E-01	6.67884473E-01	1.58387479E-01	1.72590051E-01
6.00994000E-01	6.32903027E-01	1.53775718E-01	1.66190332E-01
7.00993000E-01	6.05451465E-01	1.49119059E-01	1.59672346E-01
8.00992000E-01	5.83484863E-01	1.44686966E-01	1.53438763E-01
9.00991000E-01	5.65637061E-01	1.40576496E-01	1.47645053E-01
1.00099000E+00	5.50989160E-01	1.36810526E-01	1.42335362E-01
1.10098900E+00	5.38869116E-01	1.33379932E-01	1.37503462E-01
1.20098800E+00	5.28784546E-01	1.30262544E-01	1.33121255E-01
1.30098700E+00	5.20369287E-01	1.27431876E-01	1.29152431E-01
1.40098600E+00	5.13314014E-01	1.24861137E-01	1.25559023E-01
1.50098500E+00	5.07436084E-01	1.22525006E-01	1.22304476E-01
1.60098400E+00	5.02543506E-01	1.20400322E-01	1.19354968E-01
1.70098300E+00	4.98471387E-01	1.18466255E-01	1.16679861E-01
1.80098200E+00	4.95117236E-01	1.16704235E-01	1.14251715E-01
1.90098100E+00	4.92392236E-01	1.15097766E-01	1.12046100E-01
2.00098000E+00	4.90196387E-01	1.13632219E-01	1.10041325E-01
2.10097900E+00	4.88471777E-01	1.12294613E-01	1.08218146E-01
2.20097800E+00	4.87155371E-01	1.11073409E-01	1.06559481E-01
2.30097700E+00	4.86196094E-01	1.09958332E-01	1.05050147E-01
2.40097600E+00	4.85552832E-01	1.08940208E-01	1.03676619E-01
2.50097500E+00	4.85185693E-01	1.08010822E-01	1.02426829E-01
2.60097400E+00	4.85052246E-01	1.07162798E-01	1.01289978E-01
2.70097300E+00	4.85148340E-01	1.06389494E-01	1.00256380E-01
2.80097200E+00	4.85417285E-01	1.05684911E-01	9.93173238E-02
2.90097100E+00	4.85854248E-01	1.05043618E-01	9.84649574E-02
3.00097000E+00	4.86438672E-01	1.04460681E-01	9.76921830E-02
3.10096900E+00	4.87152832E-01	1.03931610E-01	9.69925702E-02
3.20096800E+00	4.87973437E-01	1.03452307E-01	9.63602790E-02
3.30096700E+00	4.88884619E-01	1.03019021E-01	9.57899943E-02
3.40096600E+00	4.89877100E-01	1.02628316E-01	9.52768676E-02
3.50096500E+00	4.90948486E-01	1.02277034E-01	9.48164679E-02
3.60096400E+00	4.92071436E-01	1.01962271E-01	9.44047371E-02
3.70096300E+00	4.93242871E-01	1.01681346E-01	9.40379530E-02
3.80096200E+00	4.94456738E-01	1.01431786E-01	9.37126949E-02
3.90096100E+00	4.95708545E-01	1.01211304E-01	9.34258148E-02
4.00096000E+00	4.96992236E-01	1.01017781E-01	9.31744116E-02
4.10095900E+00	4.98286670E-01	1.00849253E-01	9.29558077E-02
4.20095800E+00	4.99599121E-01	1.00703898E-01	9.27675295E-02
4.30095700E+00	5.00938232E-01	1.00580022E-01	9.26072886E-02
4.40095600E+00	5.02248242E-01	1.00476051E-01	9.24729664E-02
4.50095500E+00	5.03585498E-01	1.00390521E-01	9.23625995E-02
4.60095400E+00	5.04905225E-01	1.00322066E-01	9.22743667E-02
4.70095300E+00	5.06227588E-01	1.00269417E-01	9.22065777E-02
4.80095200E+00	5.07549463E-01	1.00231389E-01	9.21576628E-02
4.90095100E+00	5.08846387E-01	1.00206876E-01	9.21261628E-02
5.00095000E+00	5.10146143E-01	1.00194850E-01	9.21107216E-02
5.10094900E+00	5.11412256E-01	1.00194349E-01	9.21100773E-02
5.20094800E+00	5.12674072E-01	1.00204475E-01	9.21230559E-02
5.30094700E+00	5.13910937E-01	1.00224391E-01	9.21485648E-02
5.40094600E+00	5.15143848E-01	1.00253315E-01	9.21855865E-02
5.50094500E+00	5.16344434E-01	1.00290517E-01	9.22331738E-02
5.60094400E+00	5.17513184E-01	1.00335316E-01	9.22904442E-02
5.70094300E+00	5.18674902E-01	1.00387076E-01	9.23565759E-02
5.80094200E+00	5.19808838E-01	1.00445202E-01	9.24308036E-02
5.90094100E+00	5.20938232E-01	1.00509142E-01	9.25124140E-02
6.00094000E+00	5.22008838E-01	1.00578376E-01	9.26007430E-02
6.10093900E+00	5.23074561E-01	1.00652423E-01	9.26951720E-02
6.20093800E+00	5.24111035E-01	1.00730832E-01	9.27951247E-02
6.30093700E+00	5.25142236E-01	1.00813184E-01	9.29000647E-02
6.40093600E+00	5.26138184E-01	1.00899086E-01	9.30094925E-02
6.50093500E+00	5.27088867E-01	1.00988174E-01	9.31229431E-02
6.60093400E+00	5.28034473E-01	1.01080107E-01	9.32399839E-02
6.70093300E+00	5.28955273E-01	1.01174568E-01	9.33602122E-02
6.80093200E+00	5.29846484E-01	1.01271263E-01	9.34832538E-02
6.90093100E+00	5.30738916E-01	1.01369916E-01	9.36087605E-02
7.00093000E+00	5.31573975E-01	1.01470273E-01	9.37364089E-02
7.10092900E+00	5.32396338E-01	1.01572096E-01	9.38658985E-02
7.20092800E+00	5.33198145E-01	1.01675163E-01	9.39969503E-02
7.30092700E+00	5.33984473E-01	1.01779270E-01	9.41293053E-02
7.40092600E+00	5.34744287E-01	1.01884227E-01	9.42627234E-02
7.50092500E+00	5.35474414E-01	1.01989857E-01	9.43969821E-02
7.60092400E+00	5.36192334E-01	1.02095997E-01	9.45318750E-02
7.70092300E+00	5.36885742E-01	1.02202494E-01	9.46672113E-02
7.80092200E+00	5.37569043E-01	1.02309209E-01	9.48028145E-02
7.90092100E+00	5.38211426E-01	1.02416012E-01	9.49385214E-02
8.00092000E+00	5.38846338E-01	1.02522783E-01	9.50741814E-02
8.10091900E+00	5.39468994E-01	1.02629411E-01	9.52096556E-02
8.20091800E+00	5.40056543E-01	1.02735796E-01	9.53448159E-02
8.30091700E+00	5.40637402E-01	1.02841842E-01	9.54795446E-02
8.40091600E+00	5.41199219E-01	1.02947464E-01	9.56137334E-02
8.50091500E+00	5.41748242E-01	1.03052583E-01	9.57472829E-02
8.60091400E+00	5.42271484E-01	1.03157127E-01	9.58801021E-02
8.70091300E+00	5.42784473E-01	1.03261028E-01	9.60121078E-02
8.80091200E+00	5.43273145E-01	1.03364226E-01	9.61432239E-02
8.90091100E+00	5.43752246E-01	1.03466666E-01	9.62733813E-02
9.00091000E+00	5.44209424E-01	1.03568299E-01	9.64025169E-02
9.10090900E+00	5.44654687E-01	1.03669078E-01	9.65305737E-02
9.20090800E+00	5.45092725E-01	1.03768963E-01	9.66575002E-02
9.30090700E+00	5.45505664E-01	1.03867916E-01	9.67832500E-02
9.40090600E+00	5.45909814E-01	1.03965905E-01	9.69077814E-02
9.50090500E+00	5.46301270E-01	1.04062899E-01	9.70310572E-02
9.60090400E+00	5.46684521E-01	1.04158873E-01	9.71530443E-02
9.70090300E+00	5.47046094E-01	1.04253803E-01	9.72737135E-02
9.80090200E+00	5.47399414E-01	1.04347669E-01	9.73930392E-02
9.90090100E+00	5.47746680E-01	1.04440453E-01	9.75109990E-02
1.00009000E+01	5.48071582E-01	1.04532140E-01	9.76275739E-02
1.01008990E+01	5.48388477E-01	1.04622717E-01	9.77427476E-02
1.02008980E+01	5.48692822E-01	1.04712173E-01	9.78565063E-02
1.03008970E+01	5.48992187E-01	1.04800500E-01	9.79688389E-02
1.04008960E+01	5.49274219E-01	1.04887690E-01	9.80797367E-02
1.05008950E+01	5.49552148E-01	1.04973738E-01	9.81891930E-02
1.06008940E+01	5.49811963E-01	1.05058641E-01	9.82972029E-02
1.07008930E+01	5.50071680E-01	1.05142396E-01	9.84037637E-02
1.08008920E+01	5.50312061E-01	1.05225003E-01	9.85088741E-02
1.09008910E+01	5.50555322E-01	1.05306461E-01	9.86125346E-02
1.10008900E+01	5.50785645E-01	1.05386773E-01	9.87147469E-02
1.11008890E+01	5.51000439E-01	1.05465941E-01	9.88155142E-02
1.12008880E+01	5.51210937E-01	1.05543969E-01	9.89148410E-02
1.13008870E+01	5.51413867E-01	1.05620860E-01	9.90127326E-02
1.14008860E+01	5.51610596E-01	1.05696621E-01	9.91091957E-02
1.15008850E+01	5.51799707E-01	1.05771258E-01	9.92042378E-02
1.16008840E+01	5.51985645E-01	1.05844777E-01	9.92978672E-02
1.17008830E+01	5.52156445E-01	1.05917186E-01	9.93900930E-02
1.18008820E+01	5.52338477E-01	1.05988492E-01	9.94809253E-02
1.19008810E+01	5.52484473E-01	1.06058704E-01	9.95703744E-02
1.20008800E+01	5.52635498E-01	1.06127831E-01	9.96584516E-02
1.21008790E+01	5.52785840E-01	1.06195883E-01	9.97451686E-02
1.22008780E+01	5.52938135E-01	1.06262869E-01	9.98305374E-02
1.23008770E+01	5.53054492E-01	1.06328800E-01	9.99145708E-02
1.24008760E+01	5.53188770E-01	1.06393685E-01	9.99972816E-02
1.25008750E+01	5.53306982E-01	1.06457535E-01	1.00078683E-01
1.26008740E+01	5.53425732E-01	1.06520362E-01	1.00158789E-01
1.27008730E+01	5.53547217E-01	1.06582177E-01	1.00237614E-01
1.28008720E+01	5.53646875E-01	1.06642990E-01	1.00315171E-01
1.29008710E+01	5.53754492E-01	1.06702814E-01	1.00391475E-01
1.30008700E+01	5.53847266E-01	1.06761660E-01	1.00466541E-01
1.31008690E+01	5.53948242E-01	1.06819540E-01	1.00540383E-01
1.32008680E+01	5.54028223E-01	1.06876465E-01	1.00613015E-01
1.33008670E+01	5.54112012E-01	1.06932448E-01	1.00684454E-01
1.34008660E+01	5.54196533E-01	1.06987501E-01	1.00754713E-01
1.35008650E+01	5.54272998E-01	1.07041634E-01	1.00823808E-01
1.36008640E+01	5.54348340E-01	1.07094861E-01	1.00891753E-01
1.37008630E+01	5.54409229E-01	1.07147194E-01	1.00958565E-01
1.38008620E+01	5.54474854E-01	1.07198644E-01	1.01024257E-01
1.39008610E+01	5.54543555E-01	1.07249224E-01	1.01088846E-01
1.40008600E+01	5.54593457E-01	1.07298945E-01	1.01152345E-01
1.41008590E+01	5.54643506E-01	1.07347820E-01	1.01214770E-01
1.42008580E+01	5.54693848E-01	1.07395860E-01	1.01276136E-01
1.43008570E+01	5.54747998E-01	1.07443077E-01	1.01336458E-01
1.44008560E+01	5.54787500E-01	1.07489482E-01	1.01395750E-01
1.45008550E+01	5.54823340E-01	1.07535089E-01	1.01454027E-01
1.46008540E+01	5.54868994E-01	1.07579907E-01	1.01511303E-01
1.47008530E+01	5.54896436E-01	1.07623949E-01	1.01567594E-01
1.48008520E+01	5.54942187E-01	1.07667226E-01	1.01622913E-01
1.49008510E+01	5.54968994E-01	1.07709750E-01	1.01677275E-01
1.50008500E+01	5.54987402E-01	1.07751531E-01	1.01730693E-01
1.51008490E+01	5.55006982E-01	1.07792581E-01	1.01783182E-01
1.52008480E+01	5.55027246E-01	1.07832911E-01	1.01834756E-01
1.53008470E+01	5.55046973E-01	1.07872531E-01	1.01885428E-01
1.54008460E+01	5.55069531E-01	1.07911453E-01	1.01935212E-01
1.55008450E+01	5.55084619E-01	1.07949688E-01	1.01984122E-01
1.56008440E+01	5.55092773E-01	1.07987244E-01	1.02032170E-01
1.57008430E+01	5.55100195E-01	1.08024134E-01	1.02079370E-01
1.58008420E+01	5.55108545E-01	1.08060368E-01	1.02125734E-01
1.59008410E+01	5.55113232E-01	1.08095955E-01	1.02171276E-01
1.60008400E+01	5.55138477E-01	1.08130906E-01	1.02216009E-01
1.61008390E+01	5.55138184E-01	1.08165231E-01	1.02259944E-01
1.62008380E+01	5.55138184E-01	1.08198939E-01	1.02303095E-01
1.63008370E+01	5.55138135E-01	1.08232040E-01	1.02345473E-01
1.64008360E+01	5.55139160E-01	1.08264544E-01	1.02387090E-01
1.65008350E+01	5.55111963E-01	1.08296461E-01	1.02427959E-01
1.66008340E+01	5.55106006E-01	1.08327799E-01	1.02468090E-01
1.67008330E+01	5.55099414E-01	1.08358567E-01	1.02507497E-01
1.68008320E+01	5.55092725E-01	1.08388775E-01	1.02546189E-01
1.69008310E+01	5.55084521E-01	1.08418432E-01	1.02584180E-01
1.70008300E+01	5.55071826E-01	1.08447546E-01	1.02621478E-01
1.71008290E+01	5.55052979E-01	1.08476127E-01	1.02658096E-01
1.72008280E+01	5.55042236E-01	1.08504182E-01	1.02694044E-01
1.73008270E+01	5.55023486E-01	1.08531720E-01	1.02729333E-01
1.74008260E+01	5.55006836E-01	1.08558750E-01	1.02763974E-01
1.75008250E+01	5.54992773E-01	1.08585279E-01	1.02797976E-01
1.76008240E+01	5.54974707E-01	1.08611316E-01	1.02831350E-01
1.77008230E+01	5.54952979E-01	1.08636869E-01	1.02864106E-01
1.78008220E+01	5.54939600E-01	1.08661944E-01	1.02896254E-01
1.79008210E+01	5.54902637E-01	1.08686551E-01	1.02927803E-01
1.80008200E+01	5.54884570E-01	1.08710697E-01	1.02958764E-01
1.81008190E+01	5.54854248E-01	1.08734389E-01	1.02989145E-01
1.82008180E+01	5.54828369E-01	1.08757634E-01	1.03018956E-01
1.83008170E+01	5.54804248E-01	1.08780440E-01	1.03048206E-01
1.84008160E+01	5.54784473E-01	1.08802813E-01	1.03076905E-01
1.85008150E+01	5.54752539E-01	1.08824762E-01	1.03105060E-01
1.86008140E+01	5.54739014E-01	1.08846292E-01	1.03132681E-01
1.87008130E+01	5.54689160E-01	1.08867411E-01	1.03159776E-01
1.88008120E+01	5.54656055E-01	1.08888125E-01	1.03186354E-01
1.89008110E+01	5.54625488E-01	1.08908441E-01	1.03212423E-01
1.90008100E+01	5.54596826E-01	1.08928365E-01	1.03237991E-01
1.91008090E+01	5.54571289E-01	1.08947903E-01	1.03263067E-01
1.92008080E+01	5.54542187E-01	1.08967063E-01	1.03287658E-01
1.93008070E+01	5.54494482E-01	1.08985850E-01	1.03311773E-01
1.94008060E+01	5.54458545E-01	1.09004269E-01	1.03335418E-01
1.95008050E+01	5.54423975E-01	1.09022328E-01	1.03358601E-01
1.96008040E+01	5.54392773E-01	1.09040032E-01	1.03381331E-01
1.97008030E+01	5.54355957E-01	1.09057387E-01	1.03403614E-01
1.98008020E+01	5.54313086E-01	1.09074398E-01	1.03425457E-01
1.99008010E+01	5.54278320E-01	1.09091071E-01	1.03446868E-01
2.00008000E+01	5.54242285E-01	1.09107411E-01	1.03467853E-01
2.01007990E+01	5.54202246E-01	1.09123425E-01	1.03488420E-01
2.02007980E+01	5.54171533E-01	1.09139116E-01	1.03508575E-01
2.03007970E+01	5.54138477E-01	1.09154492E-01	1.03528324E-01
2.04007960E+01	5.54086475E-01	1.09169556E-01	1.03547676E-01
2.05007950E+01	5.54043799E-01	1.09184313E-01	1.03566635E-01
2.06007940E+01	5.54004248E-01	1.09198770E-01	1.03585208E-01
2.07007930E+01	5.53971533E-01	1.09212930E-01	1.03603401E-01
2.08007920E+01	5.53938135E-01	1.09226798E-01	1.03621221E-01
2.09007910E+01	5.53884521E-01	1.09240379E-01	1.03638674E-01
2.10007900E+01	5.53838232E-01	1.09253679E-01	1.03655765E-01
2.11007890E+01	5.53798242E-01	1.09266701E-01	1.03672501E-01
2.12007880E+01	5.53758545E-01	1.09279449E-01	1.03688886E-01
2.13007870E+01	5.53709668E-01	1.09291929E-01	1.03704928E-01
2.14007860E+01	5.53671973E-01	1.09304145E-01	1.03720631E-01
2.15007850E+01	5.53624512E-01	1.09316101E-01	1.03736000E-01
2.16007840E+01	5.53586719E-01	1.09327801E-01	1.03751042E-01
2.17007830E+01	5.53546582E-01	1.09339250E-01	1.03765761E-01
2.18007820E+01	5.53496289E-01	1.09350451E-01	1.03780162E-01
2.19007810E+01	5.53449463E-01	1.09361408E-01	1.03794252E-01
2.20007800E+01	5.53406250E-01	1.09372126E-01	1.03808034E-01
2.21007790E+01	5.53371338E-01	1.09382608E-01	1.03821514E-01
2.22007780E+01	5.53317187E-01	1.09392859E-01	1.03834697E-01
2.23007770E+01	5.53274658E-01	1.09402881E-01	1.03847587E-01
2.24007760E+01	5.53226465E-01	1.09412679E-01	1.03860189E-01
2.25007750E+01	5.53187207E-01	1.09422257E-01	1.03872508E-01
2.26007740E+01	5.53146387E-01	1.09431617E-01	1.03884548E-01
2.27007730E+01	5.53093408E-01	1.09440764E-01	1.03896314E-01
2.28007720E+01	5.53046680E-01	1.09449700E-01	1.03907811E-01
2.29007710E+01	5.53002246E-01	1.09458429E-01	1.03919042E-01
2.30007700E+01	5.52969043E-01	1.09466956E-01	1.03930012E-01
2.31007690E+01	5.52909082E-01	1.09475282E-01	1.03940725E-01
2.32007680E+01	5.52871143E-01	1.09483411E-01	1.03951185E-01
2.33007670E+01	5.52818750E-01	1.09491346E-01	1.03961396E-01
2.34007660E+01	5.52777295E-01	1.09499091E-01	1.03971363E-01
2.35007650E+01	5.52742725E-01	1.09506649E-01	1.03981089E-01
2.36007640E+01	5.52684814E-01	1.09514022E-01	1.03990578E-01
2.37007630E+01	5.52636475E-01	1.09521213E-01	1.03999834E-01
2.38007620E+01	5.52592920E-01	1.09528226E-01	1.04008861E-01
2.39007610E+01	5.52549414E-01	1.09535063E-01	1.04017662E-01
2.40007600E+01	5.52496973E-01	1.09541728E-01	1.04026240E-01
2.41007590E+01	5.52449707E-01	1.09548222E-01	1.04034601E-01
2.42007580E+01	5.52405225E-01	1.09554550E-01	1.04042746E-01
2.43007570E+01	5.52369336E-01	1.09560712E-01	1.04050680E-01
2.44007560E+01	5.52310840E-01	1.09566713E-01	1.04058406E-01
2.45007550E+01	5.52271338E-01	1.09572555E-01	1.04065928E-01
2.46007540E+01	5.52221045E-01	1.09578239E-01	1.04073247E-01
2.47007530E+01	5.52178076E-01	1.09583770E-01	1.04080369E-01
2.48007520E+01	5.52142187E-01	1.09589149E-01	1.04087295E-01
2.49007510E+01	5.52085596E-01	1.09594378E-01	1.04094030E-01
2.50007500E+01	5.52036768E-01	1.09599461E-01	1.04100575E-01
2.51007490E+01	5.51993457E-01	1.09604399E-01	1.04106935E-01
2.52007480E+01	5.51950000E-01	1.09609195E-01	1.04113113E-01
2.53007470E+01	5.51898242E-01	1.09613852E-01	1.04119110E-01
2.54007460E+01	5.51851025E-01	1.09618371E-01	1.04124930E-01
2.55007450E+01	5.51806592E-01	1.09622754E-01	1.04130577E-01
2.56007440E+01	5.51771045E-01	1.09627004E-01	1.04136051E-01
2.57007430E+01	5.51713086E-01	1.09631123E-01	1.04141358E-01
2.58007420E+01	5.51673096E-01	1.09635114E-01	1.04146498E-01
2.59007410E+01	5.51623486E-01	1.09638977E-01	1.04151476E-01
2.60007400E+01	5.51585498E-01	1.09642716E-01	1.04156292E-01
2.61007390E+01	5.51543506E-01	1.09646332E-01	1.04160951E-01
2.62007380E+01	5.51488721E-01	1.09649827E-01	1.04165454E-01
2.63007370E+01	5.51443213E-01	1.09653203E-01	1.04169805E-01
2.64007360E+01	5.51399121E-01	1.09656462E-01	1.04174005E-01
2.65007350E+01	5.51356152E-01	1.09659607E-01	1.04178056E-01
2.66007340E+01	5.51305811E-01	1.09662638E-01	1.04181963E-01
2.67007330E+01	5.51269092E-01	1.09665558E-01	1.04185725E-01
2.68007320E+01	5.51218213E-01	1.09668368E-01	1.04189347E-01
2.69007310E+01	5.51177344E-01	1.09671071E-01	1.04192830E-01
2.70007300E+01	5.51142187E-01	1.09673668E-01	1.04196177E-01
2.71007290E+01	5.51086475E-01	1.09676160E-01	1.04199389E-01
2.72007280E+01	5.51039160E-01	1.09678550E-01	1.04202469E-01
2.73007270E+01	5.50997314E-01	1.09680838E-01	1.04205420E-01
2.74007260E+01	5.50955273E-01	1.09683028E-01	1.04208242E-01
2.75007250E+01	5.50905469E-01	1.09685120E-01	1.04210938E-01
2.76007240E+01	5.50869238E-01	1.09687115E-01	1.04213511E-01
2.77007230E+01	5.50818994E-01	1.09689017E-01	1.04215962E-01
2.78007220E+01	5.50784619E-01	1.09690825E-01	1.04218293E-01
2.79007210E+01	5.50742969E-01	1.09692541E-01	1.04220506E-01
2.80007200E+01	5.50689014E-01	1.09694168E-01	1.04222603E-01
2.81007190E+01	5.50644531E-01	1.09695706E-01	1.04224586E-01
2.82007180E+01	5.50602393E-01	1.09697157E-01	1.04226457E-01
2.83007170E+01	5.50569336E-01	1.09698522E-01	1.04228217E-01
2.84007160E+01	5.50513525E-01	1.09699803E-01	1.04229869E-01
2.85007150E+01	5.50474707E-01	1.09701001E-01	1.04231414E-01
2.86007140E+01	5.50428564E-01	1.09702118E-01	1.04232853E-01
2.87007130E+01	5.50392236E-01	1.09703154E-01	1.04234190E-01
2.88007120E+01	5.50350488E-01	1.09704111E-01	1.04235424E-01
2.89007110E+01	5.50301416E-01	1.09704991E-01	1.04236559E-01
2.90007100E+01	5.50269287E-01	1.09705795E-01	1.04237595E-01
2.91007090E+01	5.50218457E-01	1.09706523E-01	1.04238534E-01
2.92007080E+01	5.50184473E-01	1.09707177E-01	1.04239378E-01
2.93007070E+01	5.50143994E-01	1.09707759E-01	1.04240128E-01
2.94007060E+01	5.50093652E-01	1.09708269E-01	1.04240786E-01
2.95007050E+01	5.50050049E-01	1.09708709E-01	1.04241354E-01
2.96007040E+01	5.50010498E-01	1.09709080E-01	1.04241832E-01
2.97007030E+01	5.49974561E-01	1.09709383E-01	1.04242223E-01
2.98007020E+01	5.49942187E-01	1.09709619E-01	1.04242527E-01
2.99007010E+01	5.49887842E-01	1.09709789E-01	1.04242746E-01
3.00007000E+01	5.49846338E-01	1.09709894E-01	1.04242882E-01
3.01006990E+01	5.49805469E-01	1.09709936E-01	1.04242936E-01
3.02006980E+01	5.49772217E-01	1.09709915E-01	1.04242909E-01
3.03006970E+01	5.49738623E-01	1.09709833E-01	1.04242803E-01
3.04006960E+01	5.49686523E-01	1.09709690E-01	1.04242619E-01
3.05006950E+01	5.49643848E-01	1.09709488E-01	1.04242358E-01
3.06006940E+01	5.49604590E-01	1.09709227E-01	1.04242022E-01
3.07006930E+01	5.49572021E-01	1.09708909E-01	1.04241611E-01
3.08006920E+01	5.49538721E-01	1.09708534E-01	1.04241127E-01
3.09006910E+01	5.49487012E-01	1.09708103E-01	1.04240572E-01
3.10006900E+01	5.49446094E-01	1.09707618E-01	1.04239946E-01
3.11006890E+01	5.49406592E-01	1.09707079E-01	1.04239250E-01
3.12006880E+01	5.49374023E-01	1.09706487E-01	1.04238486E-01
3.13006870E+01	5.49342187E-01	1.09705843E-01	1.04237655E-01
3.14006860E+01	5.49292236E-01	1.09705148E-01	1.04236759E-01
3.15006850E+01	5.49250049E-01	1.09704403E-01	1.04235797E-01
3.16006840E+01	5.49212451E-01	1.09703608E-01	1.04234771E-01
3.17006830E+01	5.49178418E-01	1.09702765E-01	1.04233683E-01
3.18006820E+01	5.49146045E-01	1.09701874E-01	1.04232533E-01
3.19006810E+01	5.49098340E-01	1.09700936E-01	1.04231323E-01
3.20006800E+01	5.49069092E-01	1.09699952E-01	1.04230053E-01
3.21006790E+01	5.49022998E-01	1.09698923E-01	1.04228725E-01
3.22006780E+01	5.48988867E-01	1.09697849E-01	1.04227338E-01
3.23006770E+01	5.48952832E-01	1.09696731E-01	1.04225896E-01
3.24006760E+01	5.48909375E-01	1.09695570E-01	1.04224398E-01
3.25006750E+01	5.48875342E-01	1.09694367E-01	1.04222845E-01
3.26006740E+01	5.48837305E-01	1.09693122E-01	1.04221238E-01
3.27006730E+01	5.48801074E-01	1.09691836E-01	1.04219579E-01
3.28006720E+01	5.48771729E-01	1.09690511E-01	1.04217868E-01
3.29006710E+01	5.48742334E-01	1.09689145E-01	1.04216105E-01
3.30006700E+01	5.48692773E-01	1.09687741E-01	1.04214293E-01
3.31006690E+01	5.48652930E-01	1.09686299E-01	1.04212432E-01
