2022-01-02 19:48:44
Radius	Barionic density	Energy	Pressure	Energy density	Rest mass
0.00000000E+00	5.65607169E+15	0.00000000E+00	2.13503796E+36	7.21846169E+36	0.00000000E+00
2.00000000E-03	5.65607052E+15	2.41892932E+44	2.13503708E+36	7.21845976E+36	9.53212471E-11
4.00000000E-03	5.65606701E+15	1.93514251E+45	2.13503443E+36	7.21845395E+36	7.62569826E-10
6.00000000E-03	5.65606117E+15	6.53110075E+45	2.13503002E+36	7.21844428E+36	2.57367235E-09
8.00000000E-03	5.65605299E+15	1.54811104E+46	2.13502384E+36	7.21843076E+36	6.10055397E-09
1.00000000E-02	5.65604247E+15	3.02365000E+46	2.13501590E+36	7.21841337E+36	1.19151376E-08
1.20000000E-02	5.65602962E+15	5.22485798E+46	2.13500620E+36	7.21839211E+36	2.05893434E-08
1.40000000E-02	5.65601443E+15	8.29686364E+46	2.13499474E+36	7.21836700E+36	3.26950875E-08
1.60000000E-02	5.65599691E+15	1.23847929E+47	2.13498151E+36	7.21833802E+36	4.88042821E-08
1.80000000E-02	5.65597705E+15	1.76337683E+47	2.13496651E+36	7.21830517E+36	6.94888339E-08
2.00000000E-02	5.65595485E+15	2.41889087E+47	2.13494975E+36	7.21826846E+36	9.53206439E-08
2.20000000E-02	5.65593031E+15	3.21953290E+47	2.13493123E+36	7.21822789E+36	1.26871607E-07
2.40000000E-02	5.65590344E+15	4.17981390E+47	2.13491095E+36	7.21818346E+36	1.64713609E-07
2.60000000E-02	5.65587424E+15	5.31424436E+47	2.13488890E+36	7.21813516E+36	2.09418530E-07
2.80000000E-02	5.65584269E+15	6.63733423E+47	2.13486508E+36	7.21808300E+36	2.61558241E-07
3.00000000E-02	5.65580881E+15	8.16359283E+47	2.13483951E+36	7.21802697E+36	3.21704601E-07
3.20000000E-02	5.65577260E+15	9.90752882E+47	2.13481217E+36	7.21796708E+36	3.90429461E-07
3.40000000E-02	5.65573405E+15	1.18836502E+48	2.13478306E+36	7.21790333E+36	4.68304661E-07
3.60000000E-02	5.65569316E+15	1.41064641E+48	2.13475220E+36	7.21783571E+36	5.55902029E-07
3.80000000E-02	5.65564993E+15	1.65904771E+48	2.13471957E+36	7.21776423E+36	6.53793379E-07
4.00000000E-02	5.65560437E+15	1.93501947E+48	2.13468517E+36	7.21768889E+36	7.62550515E-07
4.20000000E-02	5.65555648E+15	2.24001217E+48	2.13464902E+36	7.21760969E+36	8.82745225E-07
4.40000000E-02	5.65550624E+15	2.57547618E+48	2.13461110E+36	7.21752662E+36	1.01494928E-06
4.60000000E-02	5.65545367E+15	2.94286178E+48	2.13457141E+36	7.21743969E+36	1.15973444E-06
4.80000000E-02	5.65539877E+15	3.34361915E+48	2.13452997E+36	7.21734890E+36	1.31767245E-06
5.00000000E-02	5.65534153E+15	3.77919836E+48	2.13448676E+36	7.21725424E+36	1.48933503E-06
5.20000000E-02	5.65528195E+15	4.25104936E+48	2.13444179E+36	7.21715573E+36	1.67529390E-06
5.40000000E-02	5.65522004E+15	4.76062201E+48	2.13439505E+36	7.21705335E+36	1.87612073E-06
5.60000000E-02	5.65515579E+15	5.30936602E+48	2.13434656E+36	7.21694711E+36	2.09238721E-06
5.80000000E-02	5.65508921E+15	5.89873099E+48	2.13429630E+36	7.21683701E+36	2.32466497E-06
6.00000000E-02	5.65502029E+15	6.53016637E+48	2.13424427E+36	7.21672304E+36	2.57352566E-06
6.20000000E-02	5.65494903E+15	7.20512151E+48	2.13419049E+36	7.21660522E+36	2.83954088E-06
6.40000000E-02	5.65487544E+15	7.92504559E+48	2.13413494E+36	7.21648353E+36	3.12328221E-06
6.60000000E-02	5.65479951E+15	8.69138765E+48	2.13407764E+36	7.21635798E+36	3.42532123E-06
6.80000000E-02	5.65472125E+15	9.50559659E+48	2.13401857E+36	7.21622858E+36	3.74622947E-06
7.00000000E-02	5.65464066E+15	1.03691212E+49	2.13395773E+36	7.21609531E+36	4.08657845E-06
7.20000000E-02	5.65455773E+15	1.12834099E+49	2.13389514E+36	7.21595818E+36	4.44693966E-06
7.40000000E-02	5.65447246E+15	1.22499113E+49	2.13383079E+36	7.21581719E+36	4.82788456E-06
7.60000000E-02	5.65438486E+15	1.32700736E+49	2.13376467E+36	7.21567234E+36	5.22998461E-06
7.80000000E-02	5.65429492E+15	1.43453449E+49	2.13369679E+36	7.21552364E+36	5.65381121E-06
8.00000000E-02	5.65420265E+15	1.54771730E+49	2.13362716E+36	7.21537107E+36	6.09993574E-06
8.20000000E-02	5.65410804E+15	1.66670057E+49	2.13355576E+36	7.21521464E+36	6.56892956E-06
8.40000000E-02	5.65401110E+15	1.79162906E+49	2.13348260E+36	7.21505436E+36	7.06136400E-06
8.60000000E-02	5.65391183E+15	1.92264749E+49	2.13340768E+36	7.21489021E+36	7.57781036E-06
8.80000000E-02	5.65381022E+15	2.05990058E+49	2.13333100E+36	7.21472221E+36	8.11883990E-06
9.00000000E-02	5.65370628E+15	2.20353303E+49	2.13325256E+36	7.21455035E+36	8.68502386E-06
9.20000000E-02	5.65360000E+15	2.35368951E+49	2.13317236E+36	7.21437463E+36	9.27693344E-06
9.40000000E-02	5.65349139E+15	2.51051468E+49	2.13309040E+36	7.21419506E+36	9.89513981E-06
9.60000000E-02	5.65338044E+15	2.67415317E+49	2.13300668E+36	7.21401163E+36	1.05402141E-05
9.80000000E-02	5.65326716E+15	2.84474958E+49	2.13292120E+36	7.21382434E+36	1.12127274E-05
1.00000000E-01	5.65315155E+15	3.02244851E+49	2.13283396E+36	7.21363319E+36	1.19132508E-05
1.02000000E-01	5.65303360E+15	3.20739452E+49	2.13274496E+36	7.21343819E+36	1.26423554E-05
1.04000000E-01	5.65291332E+15	3.39973215E+49	2.13265421E+36	7.21323933E+36	1.34006120E-05
1.06000000E-01	5.65279071E+15	3.59960592E+49	2.13256169E+36	7.21303662E+36	1.41885918E-05
1.08000000E-01	5.65266576E+15	3.80716033E+49	2.13246742E+36	7.21283005E+36	1.50068655E-05
1.10000000E-01	5.65253848E+15	4.02253984E+49	2.13237139E+36	7.21261962E+36	1.58560041E-05
1.12000000E-01	5.65240887E+15	4.24588889E+49	2.13227360E+36	7.21240534E+36	1.67365784E-05
1.14000000E-01	5.65227693E+15	4.47735192E+49	2.13217405E+36	7.21218721E+36	1.76491593E-05
1.16000000E-01	5.65214265E+15	4.71707330E+49	2.13207275E+36	7.21196522E+36	1.85943174E-05
1.18000000E-01	5.65200604E+15	4.96519741E+49	2.13196968E+36	7.21173938E+36	1.95726235E-05
1.20000000E-01	5.65186710E+15	5.22186858E+49	2.13186487E+36	7.21150969E+36	2.05846482E-05
1.22000000E-01	5.65172582E+15	5.48723113E+49	2.13175829E+36	7.21127614E+36	2.16309623E-05
1.24000000E-01	5.65158221E+15	5.76142933E+49	2.13164996E+36	7.21103874E+36	2.27121362E-05
1.26000000E-01	5.65143628E+15	6.04460746E+49	2.13153987E+36	7.21079749E+36	2.38287406E-05
1.28000000E-01	5.65128800E+15	6.33690972E+49	2.13142803E+36	7.21055239E+36	2.49813459E-05
1.30000000E-01	5.65113740E+15	6.63848032E+49	2.13131443E+36	7.21030343E+36	2.61705226E-05
1.32000000E-01	5.65098447E+15	6.94946342E+49	2.13119907E+36	7.21005063E+36	2.73968411E-05
1.34000000E-01	5.65082920E+15	7.27000317E+49	2.13108196E+36	7.20979397E+36	2.86608717E-05
1.36000000E-01	5.65067161E+15	7.60024366E+49	2.13096309E+36	7.20953346E+36	2.99631847E-05
1.38000000E-01	5.65051168E+15	7.94032899E+49	2.13084247E+36	7.20926911E+36	3.13043505E-05
1.40000000E-01	5.65034942E+15	8.29040317E+49	2.13072010E+36	7.20900090E+36	3.26849391E-05
1.42000000E-01	5.65018483E+15	8.65061024E+49	2.13059597E+36	7.20872885E+36	3.41055209E-05
1.44000000E-01	5.65001791E+15	9.02109417E+49	2.13047008E+36	7.20845294E+36	3.55666658E-05
1.46000000E-01	5.64984866E+15	9.40199891E+49	2.13034245E+36	7.20817319E+36	3.70689440E-05
1.48000000E-01	5.64967708E+15	9.79346836E+49	2.13021306E+36	7.20788959E+36	3.86129254E-05
1.50000000E-01	5.64950317E+15	1.01956464E+50	2.13008191E+36	7.20760215E+36	4.01991800E-05
1.52000000E-01	5.64932694E+15	1.06086769E+50	2.12994902E+36	7.20731086E+36	4.18282777E-05
1.54000000E-01	5.64914837E+15	1.10327036E+50	2.12981437E+36	7.20701572E+36	4.35007883E-05
1.56000000E-01	5.64896747E+15	1.14678704E+50	2.12967797E+36	7.20671673E+36	4.52172817E-05
1.58000000E-01	5.64878424E+15	1.19143209E+50	2.12953981E+36	7.20641390E+36	4.69783274E-05
1.60000000E-01	5.64859868E+15	1.23721989E+50	2.12939991E+36	7.20610723E+36	4.87844953E-05
1.62000000E-01	5.64841080E+15	1.28416481E+50	2.12925826E+36	7.20579671E+36	5.06363550E-05
1.64000000E-01	5.64822058E+15	1.33228120E+50	2.12911485E+36	7.20548235E+36	5.25344759E-05
1.66000000E-01	5.64802804E+15	1.38158342E+50	2.12896969E+36	7.20516415E+36	5.44794275E-05
1.68000000E-01	5.64783317E+15	1.43208584E+50	2.12882279E+36	7.20484210E+36	5.64717794E-05
1.70000000E-01	5.64763597E+15	1.48380279E+50	2.12867413E+36	7.20451621E+36	5.85121009E-05
1.72000000E-01	5.64743645E+15	1.53674864E+50	2.12852372E+36	7.20418648E+36	6.06009613E-05
1.74000000E-01	5.64723459E+15	1.59093772E+50	2.12837157E+36	7.20385290E+36	6.27389298E-05
1.76000000E-01	5.64703041E+15	1.64638437E+50	2.12821766E+36	7.20351549E+36	6.49265757E-05
1.78000000E-01	5.64682390E+15	1.70310293E+50	2.12806201E+36	7.20317424E+36	6.71644681E-05
1.80000000E-01	5.64661507E+15	1.76110773E+50	2.12790461E+36	7.20282915E+36	6.94531759E-05
1.82000000E-01	5.64640390E+15	1.82041310E+50	2.12774546E+36	7.20248021E+36	7.17932683E-05
1.84000000E-01	5.64619042E+15	1.88103336E+50	2.12758457E+36	7.20212744E+36	7.41853142E-05
1.86000000E-01	5.64597460E+15	1.94298283E+50	2.12742192E+36	7.20177084E+36	7.66298823E-05
1.88000000E-01	5.64575646E+15	2.00627582E+50	2.12725753E+36	7.20141039E+36	7.91275415E-05
1.90000000E-01	5.64553599E+15	2.07092664E+50	2.12709140E+36	7.20104611E+36	8.16788606E-05
1.92000000E-01	5.64531320E+15	2.13694961E+50	2.12692352E+36	7.20067799E+36	8.42844082E-05
1.94000000E-01	5.64508808E+15	2.20435902E+50	2.12675389E+36	7.20030604E+36	8.69447528E-05
1.96000000E-01	5.64486064E+15	2.27316917E+50	2.12658252E+36	7.19993025E+36	8.96604630E-05
1.98000000E-01	5.64463087E+15	2.34339435E+50	2.12640940E+36	7.19955063E+36	9.24321073E-05
2.00000000E-01	5.64439878E+15	2.41504885E+50	2.12623454E+36	7.19916717E+36	9.52602539E-05
2.02000000E-01	5.64416436E+15	2.48814695E+50	2.12605793E+36	7.19877988E+36	9.81454713E-05
2.04000000E-01	5.64392762E+15	2.56270294E+50	2.12587958E+36	7.19838876E+36	1.01088328E-04
2.06000000E-01	5.64368855E+15	2.63873108E+50	2.12569949E+36	7.19799380E+36	1.04089391E-04
2.08000000E-01	5.64344716E+15	2.71624565E+50	2.12551766E+36	7.19759502E+36	1.07149230E-04
2.10000000E-01	5.64320345E+15	2.79526092E+50	2.12533408E+36	7.19719240E+36	1.10268411E-04
2.12000000E-01	5.64295741E+15	2.87579113E+50	2.12514876E+36	7.19678596E+36	1.13447504E-04
2.14000000E-01	5.64270905E+15	2.95785055E+50	2.12496170E+36	7.19637568E+36	1.16687076E-04
2.16000000E-01	5.64245837E+15	3.04145343E+50	2.12477290E+36	7.19596158E+36	1.19987695E-04
2.18000000E-01	5.64220537E+15	3.12661401E+50	2.12458236E+36	7.19554365E+36	1.23349928E-04
2.20000000E-01	5.64195004E+15	3.21334653E+50	2.12439007E+36	7.19512189E+36	1.26774343E-04
2.22000000E-01	5.64169239E+15	3.30166523E+50	2.12419605E+36	7.19469631E+36	1.30261507E-04
2.24000000E-01	5.64143243E+15	3.39158433E+50	2.12400029E+36	7.19426690E+36	1.33811989E-04
2.26000000E-01	5.64117013E+15	3.48311807E+50	2.12380279E+36	7.19383366E+36	1.37426355E-04
2.28000000E-01	5.64090552E+15	3.57628067E+50	2.12360355E+36	7.19339660E+36	1.41105173E-04
2.30000000E-01	5.64063859E+15	3.67108632E+50	2.12340257E+36	7.19295572E+36	1.44849009E-04
2.32000000E-01	5.64036934E+15	3.76754926E+50	2.12319986E+36	7.19251101E+36	1.48658432E-04
2.34000000E-01	5.64009776E+15	3.86568368E+50	2.12299541E+36	7.19206248E+36	1.52534008E-04
2.36000000E-01	5.63982387E+15	3.96550377E+50	2.12278922E+36	7.19161013E+36	1.56476304E-04
2.38000000E-01	5.63954766E+15	4.06702374E+50	2.12258129E+36	7.19115395E+36	1.60485886E-04
2.40000000E-01	5.63926912E+15	4.17025777E+50	2.12237163E+36	7.19069396E+36	1.64563323E-04
2.42000000E-01	5.63898827E+15	4.27522004E+50	2.12216024E+36	7.19023015E+36	1.68709179E-04
2.44000000E-01	5.63870510E+15	4.38192473E+50	2.12194711E+36	7.18976252E+36	1.72924023E-04
2.46000000E-01	5.63841961E+15	4.49038601E+50	2.12173224E+36	7.18929107E+36	1.77208420E-04
2.48000000E-01	5.63813180E+15	4.60061804E+50	2.12151565E+36	7.18881580E+36	1.81562937E-04
2.50000000E-01	5.63784168E+15	4.71263500E+50	2.12129732E+36	7.18833672E+36	1.85988141E-04
2.52000000E-01	5.63754924E+15	4.82645102E+50	2.12107725E+36	7.18785382E+36	1.90484597E-04
2.54000000E-01	5.63725448E+15	4.94208026E+50	2.12085546E+36	7.18736711E+36	1.95052871E-04
2.56000000E-01	5.63695740E+15	5.05953686E+50	2.12063193E+36	7.18687658E+36	1.99693530E-04
2.58000000E-01	5.63665800E+15	5.17883496E+50	2.12040667E+36	7.18638224E+36	2.04407140E-04
2.60000000E-01	5.63635629E+15	5.29998869E+50	2.12017968E+36	7.18588409E+36	2.09194267E-04
2.62000000E-01	5.63605227E+15	5.42301218E+50	2.11995096E+36	7.18538212E+36	2.14055476E-04
2.64000000E-01	5.63574593E+15	5.54791953E+50	2.11972051E+36	7.18487635E+36	2.18991333E-04
2.66000000E-01	5.63543727E+15	5.67472487E+50	2.11948833E+36	7.18436676E+36	2.24002404E-04
2.68000000E-01	5.63512630E+15	5.80344231E+50	2.11925442E+36	7.18385337E+36	2.29089253E-04
2.70000000E-01	5.63481301E+15	5.93408593E+50	2.11901879E+36	7.18333616E+36	2.34252448E-04
2.72000000E-01	5.63449741E+15	6.06666985E+50	2.11878143E+36	7.18281515E+36	2.39492552E-04
2.74000000E-01	5.63417949E+15	6.20120813E+50	2.11854234E+36	7.18229033E+36	2.44810131E-04
2.76000000E-01	5.63385926E+15	6.33771488E+50	2.11830152E+36	7.18176171E+36	2.50205750E-04
2.78000000E-01	5.63353672E+15	6.47620416E+50	2.11805898E+36	7.18122928E+36	2.55679975E-04
2.80000000E-01	5.63321186E+15	6.61669004E+50	2.11781471E+36	7.18069304E+36	2.61233369E-04
2.82000000E-01	5.63288469E+15	6.75918659E+50	2.11756872E+36	7.18015301E+36	2.66866498E-04
2.84000000E-01	5.63255521E+15	6.90370786E+50	2.11732100E+36	7.17960917E+36	2.72579927E-04
2.86000000E-01	5.63222342E+15	7.05026790E+50	2.11707156E+36	7.17906152E+36	2.78374220E-04
2.88000000E-01	5.63188931E+15	7.19888076E+50	2.11682040E+36	7.17851008E+36	2.84249941E-04
2.90000000E-01	5.63155289E+15	7.34956047E+50	2.11656751E+36	7.17795484E+36	2.90207656E-04
2.92000000E-01	5.63121417E+15	7.50232107E+50	2.11631290E+36	7.17739580E+36	2.96247927E-04
2.94000000E-01	5.63087313E+15	7.65717657E+50	2.11605657E+36	7.17683296E+36	3.02371321E-04
2.96000000E-01	5.63052978E+15	7.81414099E+50	2.11579852E+36	7.17626632E+36	3.08578399E-04
2.98000000E-01	5.63018412E+15	7.97322835E+50	2.11553875E+36	7.17569589E+36	3.14869727E-04
3.00000000E-01	5.62983615E+15	8.13445264E+50	2.11527726E+36	7.17512166E+36	3.21245868E-04
3.02000000E-01	5.62948587E+15	8.29782787E+50	2.11501405E+36	7.17454364E+36	3.27707386E-04
3.04000000E-01	5.62913329E+15	8.46336802E+50	2.11474913E+36	7.17396182E+36	3.34254845E-04
3.06000000E-01	5.62877839E+15	8.63108707E+50	2.11448248E+36	7.17337621E+36	3.40888808E-04
3.08000000E-01	5.62842119E+15	8.80099901E+50	2.11421412E+36	7.17278681E+36	3.47609838E-04
3.10000000E-01	5.62806167E+15	8.97311780E+50	2.11394404E+36	7.17219362E+36	3.54418499E-04
3.12000000E-01	5.62769986E+15	9.14745740E+50	2.11367224E+36	7.17159663E+36	3.61315354E-04
3.14000000E-01	5.62733573E+15	9.32403177E+50	2.11339873E+36	7.17099586E+36	3.68300967E-04
3.16000000E-01	5.62696930E+15	9.50285485E+50	2.11312351E+36	7.17039130E+36	3.75375899E-04
3.18000000E-01	5.62660056E+15	9.68394058E+50	2.11284657E+36	7.16978296E+36	3.82540714E-04
3.20000000E-01	5.62622951E+15	9.86730290E+50	2.11256792E+36	7.16917083E+36	3.89795974E-04
3.22000000E-01	5.62585616E+15	1.00529557E+51	2.11228755E+36	7.16855491E+36	3.97142243E-04
3.24000000E-01	5.62548051E+15	1.02409130E+51	2.11200547E+36	7.16793521E+36	4.04580082E-04
3.26000000E-01	5.62510255E+15	1.04311886E+51	2.11172168E+36	7.16731173E+36	4.12110055E-04
3.28000000E-01	5.62472228E+15	1.06237965E+51	2.11143618E+36	7.16668446E+36	4.19732722E-04
3.30000000E-01	5.62433971E+15	1.08187505E+51	2.11114897E+36	7.16605341E+36	4.27448647E-04
3.32000000E-01	5.62395484E+15	1.10160645E+51	2.11086005E+36	7.16541859E+36	4.35258391E-04
3.34000000E-01	5.62356767E+15	1.12157524E+51	2.11056942E+36	7.16477998E+36	4.43162517E-04
3.36000000E-01	5.62317819E+15	1.14178281E+51	2.11027708E+36	7.16413760E+36	4.51161585E-04
3.38000000E-01	5.62278641E+15	1.16223055E+51	2.10998303E+36	7.16349144E+36	4.59256158E-04
3.40000000E-01	5.62239233E+15	1.18291984E+51	2.10968728E+36	7.16284150E+36	4.67446797E-04
3.42000000E-01	5.62199594E+15	1.20385206E+51	2.10938982E+36	7.16218779E+36	4.75734064E-04
3.44000000E-01	5.62159726E+15	1.22502861E+51	2.10909066E+36	7.16153031E+36	4.84118519E-04
3.46000000E-01	5.62119627E+15	1.24645085E+51	2.10878979E+36	7.16086905E+36	4.92600725E-04
3.48000000E-01	5.62079299E+15	1.26812019E+51	2.10848721E+36	7.16020402E+36	5.01181241E-04
3.50000000E-01	5.62038740E+15	1.29003799E+51	2.10818294E+36	7.15953522E+36	5.09860629E-04
3.52000000E-01	5.61997951E+15	1.31220564E+51	2.10787695E+36	7.15886265E+36	5.18639450E-04
3.54000000E-01	5.61956933E+15	1.33462452E+51	2.10756927E+36	7.15818631E+36	5.27518264E-04
3.56000000E-01	5.61915685E+15	1.35729601E+51	2.10725989E+36	7.15750620E+36	5.36497631E-04
3.58000000E-01	5.61874207E+15	1.38022149E+51	2.10694880E+36	7.15682233E+36	5.45578113E-04
3.60000000E-01	5.61832499E+15	1.40340233E+51	2.10663602E+36	7.15613469E+36	5.54760269E-04
3.62000000E-01	5.61790561E+15	1.42683992E+51	2.10632153E+36	7.15544329E+36	5.64044659E-04
3.64000000E-01	5.61748394E+15	1.45053562E+51	2.10600535E+36	7.15474813E+36	5.73431844E-04
3.66000000E-01	5.61705997E+15	1.47449082E+51	2.10568746E+36	7.15404920E+36	5.82922383E-04
3.68000000E-01	5.61663370E+15	1.49870689E+51	2.10536789E+36	7.15334651E+36	5.92516836E-04
3.70000000E-01	5.61620514E+15	1.52318520E+51	2.10504661E+36	7.15264007E+36	6.02215762E-04
3.72000000E-01	5.61577429E+15	1.54792713E+51	2.10472364E+36	7.15192986E+36	6.12019721E-04
3.74000000E-01	5.61534114E+15	1.57293404E+51	2.10439897E+36	7.15121590E+36	6.21929273E-04
3.76000000E-01	5.61490569E+15	1.59820732E+51	2.10407261E+36	7.15049818E+36	6.31944976E-04
3.78000000E-01	5.61446795E+15	1.62374832E+51	2.10374456E+36	7.14977670E+36	6.42067389E-04
3.80000000E-01	5.61402792E+15	1.64955842E+51	2.10341481E+36	7.14905148E+36	6.52297071E-04
3.82000000E-01	5.61358560E+15	1.67563899E+51	2.10308337E+36	7.14832249E+36	6.62634582E-04
3.84000000E-01	5.61314098E+15	1.70199140E+51	2.10275024E+36	7.14758976E+36	6.73080479E-04
3.86000000E-01	5.61269407E+15	1.72861700E+51	2.10241542E+36	7.14685328E+36	6.83635322E-04
3.88000000E-01	5.61224487E+15	1.75551718E+51	2.10207890E+36	7.14611304E+36	6.94299667E-04
3.90000000E-01	5.61179338E+15	1.78269329E+51	2.10174070E+36	7.14536906E+36	7.05074075E-04
3.92000000E-01	5.61133960E+15	1.81014669E+51	2.10140081E+36	7.14462134E+36	7.15959102E-04
3.94000000E-01	5.61088352E+15	1.83787876E+51	2.10105924E+36	7.14386986E+36	7.26955307E-04
3.96000000E-01	5.61042516E+15	1.86589085E+51	2.10071597E+36	7.14311464E+36	7.38063247E-04
3.98000000E-01	5.60996451E+15	1.89418433E+51	2.10037103E+36	7.14235568E+36	7.49283479E-04
4.00000000E-01	5.60950157E+15	1.92276055E+51	2.10002439E+36	7.14159298E+36	7.60616563E-04
4.02000000E-01	5.60903635E+15	1.95162088E+51	2.09967607E+36	7.14082653E+36	7.72063054E-04
4.04000000E-01	5.60856883E+15	1.98076668E+51	2.09932607E+36	7.14005635E+36	7.83623509E-04
4.06000000E-01	5.60809903E+15	2.01019929E+51	2.09897438E+36	7.13928243E+36	7.95298487E-04
4.08000000E-01	5.60762694E+15	2.03992009E+51	2.09862102E+36	7.13850477E+36	8.07088543E-04
4.10000000E-01	5.60715256E+15	2.06993042E+51	2.09826597E+36	7.13772337E+36	8.18994235E-04
4.12000000E-01	5.60667590E+15	2.10023164E+51	2.09790924E+36	7.13693824E+36	8.31016119E-04
4.14000000E-01	5.60619696E+15	2.13082511E+51	2.09755083E+36	7.13614938E+36	8.43154751E-04
4.16000000E-01	5.60571573E+15	2.16171218E+51	2.09719074E+36	7.13535678E+36	8.55410688E-04
4.18000000E-01	5.60523221E+15	2.19289420E+51	2.09682897E+36	7.13456045E+36	8.67784486E-04
4.20000000E-01	5.60474641E+15	2.22437252E+51	2.09646553E+36	7.13376039E+36	8.80276701E-04
4.22000000E-01	5.60425833E+15	2.25614850E+51	2.09610041E+36	7.13295661E+36	8.92887888E-04
4.24000000E-01	5.60376797E+15	2.28822348E+51	2.09573361E+36	7.13214910E+36	9.05618603E-04
4.26000000E-01	5.60327532E+15	2.32059881E+51	2.09536514E+36	7.13133786E+36	9.18469402E-04
4.28000000E-01	5.60278039E+15	2.35327584E+51	2.09499500E+36	7.13052289E+36	9.31440841E-04
4.30000000E-01	5.60228318E+15	2.38625592E+51	2.09462318E+36	7.12970421E+36	9.44533473E-04
4.32000000E-01	5.60178369E+15	2.41954038E+51	2.09424969E+36	7.12888180E+36	9.57747855E-04
4.34000000E-01	5.60128192E+15	2.45313059E+51	2.09387453E+36	7.12805567E+36	9.71084541E-04
4.36000000E-01	5.60077787E+15	2.48702788E+51	2.09349770E+36	7.12722582E+36	9.84544086E-04
4.38000000E-01	5.60027155E+15	2.52123358E+51	2.09311920E+36	7.12639225E+36	9.98127044E-04
4.40000000E-01	5.59976294E+15	2.55574906E+51	2.09273903E+36	7.12555497E+36	1.01183397E-03
